22/03/2024	3:58 PM
Amplitude: 2.00 V
Freq  (Hz) 	 Gain (dB)  	 Phase (deg)
100.024            -15.269             86.834
104.681            -14.855             86.661
109.710            -14.421             86.495
114.739            -14.003             86.353
120.141            -13.575             86.159
125.915            -13.129             85.903
131.875            -12.686             85.637
138.022            -12.249             85.316
144.541            -11.801             85.368
151.433            -11.352             84.966
158.511            -10.905             84.701
165.962            -10.455             84.352
173.785             -9.985             84.176
181.980             -9.507             83.742
190.549             -9.029             83.296
199.489             -8.537             83.097
208.989             -8.030             82.694
218.861             -7.527             82.283
229.105             -6.986             81.877
239.909             -6.437             81.202
251.271             -5.880             80.858
263.005             -5.307             80.096
275.485             -4.708             79.322
288.337             -4.109             78.609
301.935             -3.479             77.708
316.277             -2.821             76.748
331.178             -2.140             75.492
346.825             -1.401             74.380
363.030             -0.636             72.758
380.166              0.204             70.866
398.047              1.084             68.812
416.860              2.037             66.137
436.604              3.065             63.066
457.093              4.162             58.991
478.700              5.357             53.864
501.238              6.618             47.199
524.893              7.905             38.072
549.480              9.033             26.097
575.371              9.800             11.259
602.566              9.935             -5.263
630.878              9.377            -21.041
660.680              8.341            -34.026
691.786              7.096            -44.175
724.383              5.803            -51.729
758.655              4.580            -57.399
794.418              3.441            -61.695
831.671              2.395            -65.151
870.973              1.412            -67.979
911.951              0.503            -70.277
954.978             -0.335            -72.148
1000.054             -1.143            -73.641
1047.179             -1.889            -75.072
1096.539             -2.589            -76.200
1148.134             -3.253            -77.451
1202.337             -3.892            -78.294
1258.962             -4.505            -78.854
1318.194             -5.106            -79.809
1380.406             -5.699            -80.325
1445.413             -6.258            -80.778
1513.585             -6.816            -81.545
1584.925             -7.360            -82.205
1659.617             -7.871            -82.466
1737.848             -8.370            -82.831
1819.618             -8.868            -83.206
1905.486             -9.351            -83.622
1995.265             -9.830            -84.028
2089.329            -10.295            -84.277
2187.677            -10.750            -84.580
2290.867            -11.205            -84.734
2398.901            -11.658            -84.981
2511.963            -12.095            -85.330
2630.241            -12.538            -85.611
2754.293            -12.982            -85.846
2884.120            -13.420            -85.973
